0	92.5711
200	97.6558
400	88.6290
600	99.6176
800	92.2522
1000	97.2891
1200	89.7363
1400	94.5660
1600	93.5613
1800	92.7845
2000	91.4084
2200	102.4451
2400	98.0956
2600	93.2075
2800	95.3005
3000	94.5640
3200	88.9972
3400	96.3867
3600	101.7701
3800	101.5657
4000	89.4428
4200	101.5845
4400	102.6656
4600	96.4963
4800	91.0990
5000	90.7374
5200	92.5041
5400	95.9257
5600	94.2644
5800	96.6069
6000	96.5062
6200	95.2165
6400	98.9149
6600	101.6880
6800	91.4577
7000	101.5313
7200	99.3728
7400	103.2156
7600	90.8650
7800	97.6755
8000	96.8173
8200	95.1156
8400	95.3757
8600	95.3666
8800	91.3556
9000	99.2424
9200	102.9301
9400	104.0263
9600	102.8736
9800	101.7475
10000	96.6151
10200	96.6865
10400	91.3843
10600	103.9223
10800	99.6872
11000	100.1052
11200	99.0928
11400	94.3600
11600	96.7348
11800	91.6848
12000	99.8978
12200	102.7791
12400	99.4472
12600	103.2868
12800	95.5461
13000	93.3528
13200	92.9607
13400	95.5372
13600	105.1612
13800	102.8883
14000	92.2485
14200	93.7149
14400	104.3631
14600	94.6986
14800	93.5254
15000	99.8192
15200	99.6991
15400	94.5129
15600	101.1341
15800	96.9074
16000	93.6032
16200	100.2665
16400	105.8830
16600	101.2989
16800	104.6045
17000	101.1158
17200	104.3042
17400	95.7372
17600	103.0014
17800	96.5220
18000	97.7993
18200	100.1054
18400	103.7222
18600	93.7461
18800	98.1436
19000	93.7877
19200	101.5895
19400	93.6008
19600	99.3159
19800	95.2713
20000	97.7075
20200	105.8010
20400	105.1237
20600	106.0828
20800	105.1920
21000	98.7582
21200	95.5911
21400	105.6510
21600	95.9597
21800	100.1623
22000	98.5803
22200	105.1929
22400	105.7976
22600	94.1932
22800	102.6136
23000	104.2135
23200	102.4306
23400	106.7084
23600	96.3655
23800	104.7152
24000	106.8050
24200	103.2478
24400	103.7932
24600	103.7103
24800	95.3085
25000	98.2010
25200	101.3753
25400	100.1291
25600	96.1439
25800	106.9811
26000	99.4254
26200	99.7189
26400	98.5763
26600	94.5467
26800	98.9521
27000	105.0266
27200	97.2716
27400	105.1188
27600	101.0311
27800	95.0598
28000	107.4457
28200	103.4336
28400	97.1615
28600	100.7181
28800	102.0433
29000	97.3771
29200	98.5715
29400	107.5906
29600	105.6648
29800	107.3434
30000	97.9453
30200	95.2123
30400	95.4591
30600	97.1621
30800	98.5381
31000	105.3729
31200	104.7030
31400	96.9376
31600	97.1485
31800	95.5723
32000	102.2844
32200	107.6440
32400	106.9173
32600	107.2162
32800	106.8085
33000	108.8198
33200	99.4214
33400	105.6458
33600	101.5461
33800	102.2063
34000	99.0305
34200	98.5952
34400	103.9423
34600	99.6721
34800	105.9975
35000	107.1704
35200	102.9042
35400	107.2699
35600	102.2489
35800	98.9431
36000	98.5870
36200	104.7666
36400	103.3456
36600	108.2542
36800	104.8972
37000	107.4925
37200	97.5829
37400	100.3194
37600	104.4302
37800	106.8526
38000	108.6970
38200	105.2315
38400	103.0637
38600	109.3430
38800	104.1478
39000	101.4530
39200	98.9229
39400	105.4181
39600	104.4478
39800	97.8929
40000	105.9382
40200	97.0501
40400	96.5029
40600	97.1603
40800	109.7134
41000	106.3263
41200	99.4368
41400	102.0910
41600	102.9226
41800	104.9271
42000	104.8666
42200	107.1378
42400	98.9559
42600	101.8279
42800	107.0972
43000	103.7208
43200	110.0316
43400	98.0708
43600	106.2062
43800	104.1302
44000	107.4937
44200	96.9471
44400	96.4842
44600	108.0752
44800	97.5144
45000	109.4361
45200	98.2030
45400	107.4737
45600	98.9184
45800	98.2439
46000	98.1774
46200	102.5754
46400	107.3506
46600	101.2847
46800	104.0918
47000	106.0134
47200	105.5029
47400	106.9503
47600	101.0581
47800	100.8764
48000	98.6214
48200	97.0096
48400	108.3759
48600	104.3968
48800	102.0105
49000	102.4827
49200	103.9615
49400	100.3475
49600	108.7553
49800	107.3343
50000	105.4168
50200	96.7415
50400	97.3780
50600	100.3280
50800	98.2044
51000	106.9279
51200	100.6497
51400	102.8872
51600	106.8995
51800	107.6782
52000	108.2747
52200	102.3055
52400	106.9871
52600	101.3567
52800	97.6667
53000	103.1504
53200	108.1717
53400	104.7685
53600	98.5358
53800	107.2038
54000	99.6710
54200	100.7790
54400	102.5043
54600	101.7842
54800	97.4591
55000	104.2984
55200	108.4711
55400	97.7924
55600	102.9310
55800	105.7259
56000	107.9424
56200	108.3264
56400	107.9550
56600	106.4456
56800	98.0485
57000	102.2082
57200	102.7827
57400	100.4701
57600	101.4641
57800	110.2662
58000	102.7854
58200	97.8230
58400	105.9525
58600	105.7176
58800	101.4848
59000	106.7565
59200	105.7513
59400	109.4938
59600	98.8485
59800	107.3963
60000	108.5182
60200	106.8531
60400	105.3165
60600	108.9076
60800	101.0566
61000	107.1243
61200	109.5299
61400	105.7771
61600	96.5393
61800	107.9247
62000	99.2295
62200	102.3037
62400	109.4485
62600	106.6969
62800	102.2922
63000	97.8912
63200	103.9521
63400	109.9071
63600	106.3759
63800	97.2388
64000	104.9333
64200	107.7497
64400	97.1399
64600	101.0208
64800	104.3942
65000	97.7012
65200	108.5103
65400	106.1508
65600	99.4506
65800	103.7679
66000	97.9592
66200	106.2233
66400	97.6376
66600	99.7705
66800	107.2668
67000	100.2271
67200	96.7445
67400	98.5091
67600	108.7332
67800	107.1237
68000	105.8977
68200	98.1536
68400	102.3119
68600	103.3849
68800	96.1101
69000	98.7018
69200	108.6309
69400	98.0828
69600	108.0168
69800	96.8501
70000	98.3715
70200	101.6268
70400	104.0141
70600	97.1197
70800	97.9732
71000	97.7402
71200	107.5226
71400	96.5827
71600	99.1335
71800	103.7712
72000	97.5912
72200	102.0313
72400	103.0717
72600	99.9320
72800	96.5620
73000	101.9341
73200	102.0246
73400	101.5580
73600	108.0149
73800	101.0236
74000	97.9440
74200	105.9842
74400	97.7093
74600	104.8582
74800	107.8634
75000	97.1286
75200	101.7439
75400	99.2019
75600	94.9038
75800	98.3802
76000	101.6504
76200	100.5673
76400	103.3871
76600	99.8818
76800	107.6430
77000	105.7634
77200	96.0252
77400	95.8043
77600	96.7405
77800	107.7937
78000	100.6543
78200	106.7041
78400	99.9795
78600	96.9469
78800	101.4829
79000	107.5590
79200	106.4389
79400	95.4260
79600	107.3220
79800	107.5750
80000	99.2936
80200	95.3567
80400	104.7668
80600	99.3586
80800	94.6163
81000	95.5216
81200	97.7981
81400	102.5479
81600	99.1453
81800	99.6621
82000	102.7722
82200	96.4968
82400	102.7393
82600	96.6927
82800	97.2687
83000	102.1051
83200	98.7350
83400	102.6713
83600	106.7642
83800	102.3897
84000	100.9288
84200	95.8684
84400	98.6007
84600	96.8886
84800	101.3997
85000	99.7808
85200	98.2180
85400	98.4939
85600	98.8933
85800	98.4313
86000	106.1185
86200	94.8053
86400	92.9842
86600	101.7998
86800	97.5332
87000	97.5995
87200	96.7377
87400	94.7292
87600	96.2571
87800	99.5078
88000	98.0870
88200	96.1490
88400	93.6242
88600	96.4977
88800	99.6469
89000	96.9618
89200	105.0890
89400	100.2495
89600	104.1815
89800	96.4351
90000	100.3848
90200	96.0242
90400	98.4445
90600	96.4427
90800	92.7266
91000	101.1152
91200	105.6122
91400	98.3999
91600	102.0278
91800	104.4771
92000	100.0261
92200	95.2355
92400	102.5994
92600	105.6268
92800	99.4656
93000	96.2447
93200	97.3002
93400	96.4094
93600	95.6680
93800	100.1663
94000	99.6069
94200	98.7234
94400	103.3163
94600	103.3292
94800	102.5730
95000	94.7978
95200	93.2111
95400	93.2097
95600	103.1452
95800	96.1170
96000	96.8483
96200	93.2460
96400	99.8057
96600	96.5848
96800	101.1189
97000	104.2510
97200	97.0099
97400	93.0230
97600	97.3509
97800	99.2697
98000	97.3868
98200	93.5973
98400	92.4117
98600	92.2227
98800	94.1732
99000	94.2653
99200	103.0898
99400	94.1812
99600	93.8478
99800	90.8391
100000	102.4747
100200	96.6162
100400	90.4362
100600	99.7573
100800	100.5532
101000	98.4666
101200	98.4537
101400	94.1594
101600	96.7419
101800	99.3687
102000	102.9564
102200	101.3570
102400	93.5731
102600	96.8920
102800	96.6676
103000	95.2951
103200	98.2547
103400	101.1246
103600	97.6500
103800	91.0975
104000	98.3211
104200	99.4520
104400	100.4906
104600	96.2894
104800	99.0952
105000	89.8727
105200	99.4691
105400	94.7926
105600	90.1795
105800	94.6947
106000	101.6764
106200	89.2845
106400	91.6951
106600	97.9573
106800	93.5542
107000	91.0172
107200	98.4877
107400	91.4202
107600	95.8216
107800	89.6892
108000	94.0191
108200	95.4655
108400	95.2614
108600	95.4629
108800	99.1630
109000	94.7552
109200	93.3302
109400	96.7227
109600	98.6237
109800	97.9885
110000	95.0650
110200	88.6679
110400	97.1968
110600	100.6022
110800	89.2533
111000	93.3318
111200	99.5904
111400	96.7586
111600	88.3346
111800	95.1235
112000	91.0255
112200	94.4636
112400	90.0044
112600	99.4842
112800	99.3347
113000	91.1606
113200	91.9874
113400	91.7534
113600	100.7771
113800	96.6411
114000	98.9491
114200	96.8364
114400	95.2896
114600	97.6189
114800	92.0158
115000	95.7700
115200	92.3917
115400	99.8095
115600	88.8696
115800	90.7769
116000	88.4639
116200	92.8590
116400	89.8894
116600	95.9048
116800	91.6179
117000	94.9666
117200	87.3048
117400	99.8436
117600	99.8764
117800	87.5441
118000	93.8328
118200	93.0132
118400	95.8839
118600	87.7566
118800	94.7654
119000	100.5173
119200	96.8637
119400	92.2871
119600	96.9775
119800	96.0557
120000	92.0434
120200	91.1702
120400	87.8231
120600	95.3896
120800	95.2644
121000	88.0372
121200	98.3894
121400	87.4532
121600	95.9970
121800	94.6179
122000	93.0762
122200	94.7056
122400	87.4776
122600	98.8413
122800	96.9713
123000	97.8171
123200	88.1881
123400	93.3800
123600	93.9887
123800	95.2822
124000	90.3960
124200	86.9814
124400	86.2399
124600	96.0552
124800	96.9737
125000	94.4303
125200	92.6057
125400	98.8005
125600	89.2154
125800	90.4856
126000	91.9785
126200	86.8519
126400	93.8712
126600	98.6357
126800	88.1430
127000	99.4746
127200	87.1173
127400	99.0155
127600	98.7643
127800	93.5239
128000	92.6789
128200	87.3300
128400	98.4520
128600	97.0939
128800	92.8282
129000	88.1271
129200	89.3702
129400	96.2504
129600	88.4723
129800	97.2636
130000	98.3595
130200	93.4413
130400	88.0530
130600	85.9084
130800	99.0431
131000	93.6787
131200	88.4751
131400	89.9271
131600	98.8826
131800	86.0862
132000	86.7833
132200	89.9904
132400	88.6552
132600	91.9048
132800	94.8055
133000	91.2512
133200	87.3184
133400	87.5524
133600	90.4816
133800	86.9342
134000	98.7323
134200	90.8286
134400	95.0971
134600	97.6805
134800	94.2090
135000	85.8611
135200	93.1392
135400	89.9928
135600	96.3555
135800	95.8846
136000	88.9950
136200	98.6228
136400	93.1814
136600	86.4488
136800	94.2102
137000	97.2473
137200	88.9386
137400	85.1471
137600	94.5270
137800	89.2733
138000	97.6621
138200	95.4605
138400	91.4201
138600	96.1193
138800	98.8808
139000	85.8111
139200	92.3496
139400	87.8139
139600	90.4671
139800	86.4174
140000	95.4493
140200	86.2570
140400	97.0938
140600	94.0472
140800	89.8693
141000	86.9872
141200	94.2669
141400	90.2598
141600	96.4917
141800	92.7975
142000	91.4041
142200	90.2326
142400	95.2383
142600	94.0461
142800	88.9259
143000	86.7655
143200	94.6883
143400	86.0030
143600	89.8303
143800	93.5563
144000	85.2259
144200	91.0778
144400	97.7177
144600	89.3423
144800	96.4356
145000	87.2727
145200	92.7359
145400	87.9996
145600	92.9644
145800	97.7029
146000	92.4146
146200	87.1963
146400	90.5696
146600	97.5297
146800	85.8560
147000	85.6914
147200	93.5706
147400	98.1497
147600	95.2527
147800	96.8746
148000	88.4242
148200	85.9826
148400	90.2000
148600	89.6392
148800	93.6413
149000	98.7036
149200	85.7717
149400	99.1836
149600	87.7646
149800	95.2620
150000	86.8289
150200	95.8338
150400	88.6249
150600	91.5310
150800	90.5295
151000	85.4816
151200	86.5961
151400	98.9325
151600	96.5077
151800	92.7306
152000	98.0670
152200	92.8790
152400	91.6923
152600	87.3470
152800	90.8479
153000	87.3794
153200	92.2325
153400	86.1044
153600	96.7322
153800	87.6490
154000	90.4995
154200	91.6212
154400	87.9310
154600	88.0703
154800	94.6334
155000	93.2801
155200	93.5993
155400	90.3464
155600	87.6033
155800	92.8267
156000	98.1726
156200	92.1919
156400	86.2509
156600	92.7384
156800	92.7333
157000	98.4046
157200	92.2837
157400	86.9597
157600	94.1243
157800	97.6616
158000	94.6893
158200	97.0958
158400	90.0307
158600	91.8842
158800	90.5381
159000	90.6586
159200	95.7456
159400	86.5143
159600	94.6433
159800	97.4604
160000	91.8413
160200	93.5474
160400	98.0467
160600	87.7465
160800	91.4628
161000	90.6643
161200	92.8006
161400	89.1626
161600	99.4636
161800	93.3071
162000	88.0118
162200	99.1495
162400	93.1021
162600	94.0417
162800	87.6193
163000	94.8598
163200	87.5166
163400	89.0512
163600	87.8728
163800	96.1894
164000	100.6990
164200	93.1042
164400	99.9803
164600	87.0177
164800	88.1852
165000	89.8415
165200	94.8961
165400	93.2518
165600	89.1810
165800	91.7242
166000	92.7143
166200	89.7653
166400	87.3419
166600	95.4884
166800	90.6401
167000	97.8291
167200	100.9267
167400	100.4497
167600	101.0046
167800	96.1253
168000	96.5424
168200	94.4999
168400	98.2946
168600	99.9386
168800	94.1996
169000	98.1420
169200	97.6639
169400	94.6200
169600	92.8972
169800	94.4056
170000	100.8961
170200	100.9151
170400	93.4559
170600	95.9868
170800	97.2874
171000	93.2514
171200	92.8172
171400	100.4564
171600	100.4176
171800	97.5791
172000	95.5290
172200	93.8809
172400	93.2793
172600	98.8569
172800	93.6351
173000	98.6982
173200	93.7328
173400	91.7798
173600	95.6876
173800	97.1942
174000	93.7559
174200	93.8395
174400	93.1014
174600	99.4216
174800	91.4571
175000	97.3132
175200	93.5692
175400	95.9065
175600	102.3223
175800	94.2736
176000	102.7555
176200	100.9857
176400	95.6613
176600	102.2145
176800	92.9891
177000	90.1187
177200	99.7253
177400	93.3851
177600	99.1718
177800	100.0176
178000	92.4622
178200	98.4268
178400	95.6236
178600	91.9400
178800	96.3803
179000	100.4072
179200	95.0809
179400	91.9866
179600	101.4872
179800	94.8436
180000	102.5690
180200	103.7496
180400	101.7741
180600	92.8108
180800	92.3655
181000	90.1533
181200	100.2139
181400	99.7268
181600	95.7747
181800	100.8330
182000	94.7416
182200	91.9098
182400	98.9315
182600	92.8938
182800	103.1855
183000	100.5001
183200	97.3523
183400	102.3943
183600	92.6189
183800	95.8418
184000	97.4543
184200	97.3990
184400	102.1001
184600	96.9163
184800	96.7588
185000	92.9425
185200	95.2700
185400	93.9233
185600	91.9999
185800	103.7491
186000	104.7759
186200	103.6009
186400	97.8554
186600	102.0533
186800	99.9897
187000	92.3805
187200	92.5206
187400	95.3621
187600	104.9908
187800	93.9694
188000	103.8411
188200	92.5059
188400	103.2804
188600	95.4545
188800	93.2266
189000	93.8189
189200	95.1976
189400	95.5212
189600	96.0612
189800	104.7949
190000	103.5049
190200	97.8818
190400	100.8318
190600	106.0617
190800	94.1133
191000	100.5065
191200	104.6910
191400	98.0166
191600	104.4135
191800	102.7501
192000	100.6750
192200	103.9688
192400	105.1845
192600	99.9702
192800	105.2943
193000	103.1309
193200	105.5463
193400	94.7282
193600	100.7159
193800	106.3037
194000	103.9269
194200	101.1692
194400	105.2569
194600	100.5983
194800	93.5110
195000	94.6721
195200	99.4063
195400	97.0390
195600	96.1404
195800	100.3659
196000	98.0956
196200	98.3911
196400	104.1344
196600	99.6048
196800	103.4361
197000	102.0561
197200	106.9985
197400	94.9957
197600	95.6414
197800	102.3806
198000	103.4907
198200	104.0724
198400	97.3546
198600	102.2191
198800	101.0138
199000	107.2102
199200	98.0983
199400	105.0985
199600	107.8031
199800	104.8742
200000	105.0663
200200	104.8242
200400	98.8772
200600	106.7954
200800	99.9766
201000	106.8740
201200	108.2217
201400	103.1684
201600	105.2022
201800	107.4235
202000	99.1733
202200	99.4641
202400	103.9019
202600	99.3449
202800	108.4752
203000	103.9521
203200	108.3659
203400	108.0250
203600	98.9697
203800	100.5245
204000	100.2986
204200	109.3450
204400	107.3991
204600	98.9175
204800	102.2545
205000	105.6661
205200	101.2824
205400	105.9226
205600	96.9482
205800	107.1652
206000	96.3373
206200	102.6818
206400	102.6550
206600	105.3632
206800	109.4152
207000	102.6607
207200	100.4232
207400	101.1909
207600	99.4197
207800	102.3929
208000	100.3151
208200	99.4357
208400	108.1748
208600	104.5899
208800	105.3957
209000	110.9130
209200	102.7147
209400	102.7098
209600	99.6894
209800	109.2056
210000	101.9606
210200	101.5785
210400	105.8208
210600	102.3153
210800	110.2563
211000	98.1580
211200	109.5608
211400	105.0710
211600	97.7294
211800	104.0545
212000	99.9953
212200	109.6356
212400	102.9468
212600	98.8603
212800	99.5359
213000	98.9564
213200	102.8354
213400	100.9240
213600	103.4912
213800	109.5029
214000	110.3336
214200	111.6418
214400	104.4169
214600	101.1356
214800	109.7451
215000	98.8641
215200	99.9646
215400	109.4489
215600	101.2620
215800	104.5108
216000	112.4471
216200	109.4323
216400	109.6270
216600	102.9904
216800	111.8390
217000	100.7946
217200	99.4025
217400	108.5140
217600	101.4322
217800	102.7931
218000	106.8164
218200	108.9008
218400	110.8639
218600	99.9126
218800	103.6528
219000	106.9670
219200	110.7365
219400	109.2377
219600	106.1556
219800	106.0927
220000	104.5485
220200	109.8628
220400	107.4157
220600	104.0600
220800	111.1539
221000	110.1822
221200	101.2083
221400	106.7564
221600	104.4703
221800	100.4052
222000	104.7509
222200	106.8378
222400	106.6538
222600	103.1393
222800	105.3495
223000	101.9430
223200	102.4588
223400	104.3860
223600	111.4026
223800	104.5558
224000	104.0028
224200	112.7918
224400	113.7308
224600	113.1071
224800	110.6537
225000	108.4994
225200	102.7020
225400	101.4102
225600	104.2598
225800	108.4419
226000	108.1198
226200	101.0252
226400	111.4390
226600	102.4243
226800	106.3444
227000	104.6435
227200	102.1483
227400	107.8358
227600	104.6150
227800	110.0884
228000	113.2511
228200	104.3364
228400	114.0415
228600	110.0248
228800	107.3014
229000	103.3626
229200	104.2357
229400	101.9706
229600	102.2629
229800	106.7944
230000	106.0490
230200	112.7058
230400	103.3836
230600	104.6286
230800	114.3871
231000	108.6710
231200	113.9421
231400	111.0019
231600	104.5688
231800	101.4505
232000	113.0866
232200	101.4066
232400	101.1995
232600	102.9326
232800	102.4846
233000	109.4442
233200	102.0263
233400	106.2414
233600	103.0006
233800	114.9598
234000	110.7441
234200	104.0348
234400	112.1236
234600	114.9002
234800	102.2227
235000	103.2596
235200	106.3600
235400	113.7416
235600	111.1217
235800	112.9616
236000	106.3128
236200	109.8286
236400	106.3628
236600	113.2402
236800	101.6649
237000	115.4693
237200	115.4287
237400	114.9445
237600	112.7852
237800	112.1301
238000	113.9566
238200	115.2030
238400	109.1770
238600	111.5736
238800	109.5959
239000	107.3805
239200	110.4866
239400	105.2838
239600	110.5973
239800	111.5577
240000	113.2909
240200	108.0225
240400	107.1042
240600	111.1249
240800	106.3841
241000	112.8592
241200	112.6132
241400	106.5849
241600	104.7798
241800	114.5210
242000	106.5738
242200	109.1593
242400	108.1500
242600	109.4028
242800	114.5953
243000	110.2907
243200	102.9170
243400	110.0849
243600	106.2296
243800	108.6350
244000	104.7200
244200	103.6995
244400	107.7995
244600	111.6381
244800	115.4717
245000	110.9904
245200	105.2405
245400	102.2903
245600	110.7270
245800	114.4100
246000	113.4243
246200	105.1519
246400	106.5802
246600	103.0978
246800	105.9346
247000	111.2440
247200	106.8100
247400	108.0820
247600	104.7623
247800	114.8991
248000	112.4922
248200	104.5512
248400	102.8891
248600	113.1631
248800	113.7970
249000	109.5369
249200	112.2287
249400	103.8449
249600	113.1915
249800	106.8525
250000	114.8948
250200	107.8058
250400	106.7642
250600	106.6318
250800	105.2627
251000	104.5827
251200	107.8924
251400	104.3107
251600	105.7961
251800	109.9395
252000	104.9692
252200	113.3961
252400	113.1052
252600	109.4397
252800	114.4106
253000	113.8659
253200	102.2062
253400	111.6339
253600	115.6599
253800	111.5432
254000	108.4512
254200	111.9573
254400	106.4096
254600	115.2891
254800	102.0962
255000	111.9287
255200	113.7580
255400	108.3573
255600	101.9770
255800	103.7468
256000	112.5212
256200	107.7554
256400	110.2607
256600	101.8767
256800	113.4173
257000	114.9549
257200	111.7427
257400	110.7198
257600	113.3424
257800	114.7945
258000	104.6571
258200	102.9619
258400	107.4577
258600	114.9216
258800	105.4695
259000	114.6932
259200	114.3057
259400	109.6136
259600	101.6208
259800	104.8923
260000	112.6738
260200	107.3242
260400	111.6918
260600	112.3705
260800	114.4257
261000	112.7978
261200	109.9549
261400	112.7679
261600	111.0179
261800	112.0967
262000	107.7849
262200	101.6966
262400	110.9202
262600	112.3834
262800	113.8948
263000	107.6236
263200	110.6595
263400	109.8028
263600	104.8671
263800	107.5884
264000	111.7058
264200	114.3078
264400	112.9486
264600	102.3474
264800	102.9180
265000	111.7720
265200	107.5773
265400	107.0406
265600	113.7696
265800	113.2331
266000	106.6114
266200	110.9730
266400	111.0720
266600	108.6115
266800	102.7270
267000	105.6056
267200	103.4150
267400	109.7460
267600	107.9554
267800	101.3483
268000	107.0425
268200	107.0931
268400	104.8277
268600	113.2497
268800	106.3827
269000	103.9313
269200	102.0949
269400	113.1777
269600	103.9514
269800	101.4149
270000	104.4937
270200	103.5828
270400	105.8470
270600	107.3217
270800	103.5257
271000	107.4406
271200	102.5556
271400	104.8375
271600	101.7188
271800	110.4645
272000	108.2867
272200	103.2216
272400	102.3403
272600	107.1843
272800	101.5551
273000	101.6966
273200	112.0291
273400	111.9839
273600	105.2313
273800	109.4068
274000	109.3176
274200	111.6915
274400	101.7766
274600	101.7889
274800	103.5100
275000	107.8159
275200	112.8823
275400	105.1980
275600	103.8878
275800	106.0240
276000	104.2326
276200	101.1342
276400	102.7090
276600	109.9510
276800	107.6089
277000	102.9109
277200	108.9722
277400	109.9400
277600	102.0544
277800	103.1121
278000	105.4125
278200	102.8011
278400	109.3191
278600	111.6795
278800	112.6982
279000	112.1875
279200	108.3011
279400	101.9739
279600	100.2984
279800	98.6796
280000	104.7063
280200	105.6560
280400	102.9887
280600	100.1720
280800	107.6428
281000	98.7287
281200	107.4638
281400	106.6574
281600	104.3698
281800	108.5849
282000	103.0275
282200	100.9998
282400	99.9197
282600	107.4058
282800	105.8265
283000	98.7930
283200	109.8114
283400	100.7519
283600	109.5988
283800	107.8955
284000	109.5751
284200	109.6911
284400	101.4033
284600	99.7380
284800	102.3058
285000	98.3083
285200	102.3020
285400	101.9953
285600	104.9646
285800	97.9388
286000	98.4614
286200	105.7177
286400	109.6475
286600	110.9704
286800	109.6420
287000	99.5149
287200	107.5392
287400	108.5581
287600	99.5465
287800	98.8865
288000	98.7715
288200	104.0935
288400	107.9933
288600	98.2926
288800	98.9042
289000	105.7751
289200	106.3849
289400	101.0583
289600	100.2491
289800	105.1210
290000	103.4405
290200	105.7067
290400	103.7527
290600	107.7693
290800	107.6606
291000	98.8121
291200	102.6597
291400	104.4090
291600	102.4928
291800	107.9693
292000	98.6739
292200	107.1856
292400	109.6679
292600	105.9722
292800	108.8361
293000	100.4252
293200	97.6740
293400	106.7937
293600	96.8373
293800	108.0206
294000	97.8388
294200	97.4640
294400	101.9863
294600	107.3232
294800	95.9872
295000	97.4375
295200	100.5507
295400	96.8846
295600	97.1450
295800	108.5444
296000	103.6891
296200	96.8917
296400	106.2548
296600	100.1204
296800	103.6943
297000	102.6385
297200	107.3756
297400	107.4070
297600	99.7654
297800	98.8790
298000	99.3330
298200	104.8177
298400	102.0287
298600	106.4049
298800	95.2893
299000	103.1629
299200	100.0243
299400	95.6915
299600	95.2023
299800	97.4277
300000	97.3791
