0	99.3358
200	97.4012
400	94.7002
600	98.6126
800	95.3891
1000	95.2800
1200	99.1977
1400	96.0658
1600	102.0452
1800	100.3773
2000	96.6425
2200	91.1472
2400	88.9815
2600	94.6954
2800	92.9600
3000	95.3559
3200	100.1615
3400	90.7709
3600	93.6314
3800	100.3910
4000	89.7901
4200	91.6576
4400	102.7890
4600	97.4499
4800	101.0093
5000	89.5330
5200	99.4108
5400	99.8221
5600	102.4278
5800	103.1465
6000	91.4585
6200	93.7468
6400	103.0785
6600	89.8276
6800	100.3027
7000	98.0018
7200	91.8973
7400	103.2745
7600	99.2794
7800	96.1954
8000	93.3173
8200	91.8397
8400	101.7197
8600	99.2263
8800	102.0719
9000	93.5328
9200	93.2996
9400	94.8839
9600	97.8005
9800	103.4593
10000	95.0509
10200	93.0546
10400	91.5509
10600	96.9127
10800	100.8780
11000	100.5050
11200	103.7720
11400	92.8403
11600	98.9245
11800	100.7103
12000	102.8900
12200	103.9011
12400	95.6334
12600	103.6956
12800	105.0631
13000	102.8335
13200	92.8438
13400	96.3598
13600	93.2069
13800	96.3524
14000	97.7691
14200	105.2515
14400	102.8855
14600	93.2953
14800	95.1992
15000	97.2637
15200	98.1615
15400	93.2338
15600	96.7719
15800	105.2177
16000	103.9988
16200	99.2718
16400	105.6552
16600	100.8047
16800	99.3116
17000	92.2471
17200	104.4866
17400	92.8529
17600	102.2541
17800	103.0569
18000	93.9115
18200	92.3899
18400	98.8434
18600	103.3243
18800	100.5648
19000	93.4691
19200	99.5115
19400	96.1259
19600	104.8402
19800	96.2279
20000	93.6769
20200	105.9988
20400	94.2896
20600	104.1473
20800	95.9334
21000	106.9446
21200	101.9975
21400	100.9815
21600	102.9463
21800	98.6517
22000	106.7742
22200	100.3263
22400	105.6523
22600	96.6520
22800	95.5102
23000	98.2946
23200	94.8554
23400	99.6327
23600	101.5370
23800	99.2683
24000	99.8136
24200	100.6200
24400	106.3375
24600	94.1950
24800	106.9085
25000	100.2563
25200	101.4498
25400	98.3985
25600	100.9940
25800	97.8861
26000	106.9079
26200	107.3715
26400	97.5154
26600	95.6728
26800	100.0630
27000	98.5199
27200	106.9942
27400	98.4623
27600	106.1305
27800	98.3264
28000	102.9719
28200	95.6144
28400	103.3039
28600	99.9032
28800	96.0067
29000	98.5189
29200	98.7822
29400	95.4024
29600	97.8158
29800	101.0165
30000	105.5518
30200	99.2516
30400	99.1592
30600	99.4427
30800	103.2692
31000	97.6856
31200	104.5566
31400	102.5135
31600	98.0864
31800	101.5407
32000	102.4323
32200	106.7711
32400	105.7637
32600	104.7824
32800	104.7815
33000	100.8100
33200	95.9129
33400	104.7334
33600	99.9524
33800	109.0001
34000	106.7156
34200	105.4720
34400	101.6359
34600	106.9271
34800	98.9602
35000	99.3694
35200	102.6599
35400	106.2683
35600	101.7394
35800	109.2337
36000	95.6784
36200	108.3231
36400	99.6560
36600	97.0307
36800	102.3520
37000	104.9156
37200	108.8757
37400	108.6494
37600	100.1117
37800	98.8900
38000	108.8756
38200	103.6808
38400	103.1008
38600	105.9162
38800	102.2279
39000	98.6804
39200	97.3881
39400	102.8244
39600	102.2661
39800	107.8799
40000	108.0462
40200	101.1880
40400	103.9743
40600	96.8206
40800	105.1894
41000	108.3734
41200	96.9460
41400	97.8746
41600	103.5636
41800	105.7754
42000	98.7543
42200	108.1233
42400	99.7831
42600	107.4562
42800	106.5787
43000	107.5627
43200	96.8075
43400	99.9085
43600	106.4306
43800	105.1033
44000	104.7526
44200	101.1596
44400	100.8226
44600	109.3334
44800	108.6290
45000	104.9364
45200	105.2254
45400	106.5151
45600	109.1023
45800	99.1096
46000	109.1545
46200	103.7817
46400	107.8686
46600	99.1359
46800	99.2327
47000	103.0044
47200	108.7386
47400	98.7172
47600	105.0695
47800	98.2984
48000	97.0248
48200	109.3951
48400	106.3045
48600	109.6358
48800	103.3251
49000	100.2997
49200	104.6547
49400	100.5351
49600	97.2966
49800	100.7717
50000	108.3129
50200	107.2952
50400	104.5132
50600	102.0764
50800	101.5387
51000	98.7437
51200	103.0015
51400	97.9272
51600	103.7866
51800	96.9670
52000	99.5474
52200	103.0402
52400	104.2157
52600	98.9918
52800	103.3686
53000	104.4349
53200	108.9228
53400	98.8865
53600	110.2457
53800	99.7033
54000	107.7449
54200	107.2518
54400	101.7065
54600	99.9637
54800	106.9735
55000	96.5674
55200	109.3557
55400	104.7187
55600	97.8245
55800	98.3664
56000	103.9463
56200	101.3369
56400	100.0079
56600	107.7037
56800	102.2840
57000	103.3758
57200	101.2410
57400	97.8882
57600	104.5596
57800	105.4656
58000	109.0485
58200	101.9476
58400	108.2027
58600	101.9719
58800	100.6935
59000	96.7944
59200	97.8513
59400	110.1571
59600	108.5831
59800	101.5615
60000	96.5294
60200	100.0579
60400	107.9927
60600	107.0769
60800	100.6279
61000	100.7989
61200	105.4516
61400	100.9453
61600	102.7823
61800	98.5599
62000	101.6353
62200	106.2068
62400	102.2400
62600	100.9170
62800	96.1073
63000	99.0391
63200	103.8117
63400	101.7749
63600	108.7534
63800	108.4748
64000	96.0007
64200	104.6097
64400	98.2543
64600	104.6001
64800	100.4042
65000	99.2419
65200	109.4381
65400	97.2053
65600	107.9784
65800	100.8560
66000	102.8584
66200	100.3551
66400	99.2642
66600	97.4883
66800	99.4395
67000	97.8471
67200	97.1646
67400	105.6993
67600	100.5348
67800	106.0282
68000	106.3689
68200	103.6508
68400	101.2403
68600	97.9373
68800	105.0172
69000	104.3059
69200	98.3087
69400	102.2425
69600	103.6988
69800	102.9712
70000	95.5053
70200	107.9421
70400	108.3783
70600	98.8987
70800	98.7528
71000	95.2980
71200	107.3432
71400	100.1681
71600	96.9056
71800	96.9708
72000	107.7670
72200	108.5659
72400	97.4990
72600	98.8237
72800	96.9806
73000	98.6825
73200	108.3177
73400	97.3662
73600	101.0476
73800	106.9441
74000	99.1247
74200	102.3047
74400	96.7345
74600	101.7992
74800	107.3979
75000	100.1692
75200	96.4726
75400	107.7776
75600	95.4147
75800	96.4852
76000	99.4032
76200	107.6425
76400	107.5313
76600	105.4588
76800	95.1005
77000	104.3515
77200	103.9981
77400	99.6451
77600	100.0661
77800	98.0479
78000	97.1563
78200	103.5667
78400	98.5888
78600	100.8003
78800	99.3597
79000	100.7529
79200	99.0633
79400	105.3076
79600	95.4636
79800	99.1673
80000	100.3619
80200	95.2916
80400	102.2270
80600	101.4928
80800	102.3520
81000	104.7919
81200	100.4703
81400	94.2427
81600	102.1545
81800	99.0851
82000	105.3319
82200	103.1670
82400	105.2361
82600	97.4452
82800	97.4694
83000	99.9221
83200	99.9289
83400	93.4652
83600	101.5470
83800	94.4731
84000	101.4721
84200	102.1572
84400	99.8540
84600	93.1970
84800	95.1685
85000	106.5507
85200	102.3980
85400	96.1565
85600	103.7497
85800	100.0087
86000	96.3163
86200	100.5112
86400	103.5453
86600	101.9776
86800	104.9498
87000	94.5377
87200	105.5469
87400	98.3931
87600	100.4220
87800	100.2249
88000	104.9635
88200	99.4580
88400	105.0685
88600	101.9146
88800	96.3606
89000	105.0123
89200	92.5593
89400	93.9555
89600	102.9768
89800	93.2137
90000	101.0582
90200	105.8400
90400	102.3122
90600	95.7476
90800	92.2634
91000	94.7917
91200	97.5818
91400	104.2848
91600	101.6725
91800	103.2736
92000	98.1280
92200	102.4062
92400	94.9157
92600	102.3838
92800	97.3858
93000	100.7131
93200	96.5014
93400	93.6098
93600	98.4946
93800	98.3418
94000	96.8175
94200	92.9081
94400	101.1498
94600	93.6010
94800	100.7327
95000	100.5795
95200	92.7893
95400	101.9513
95600	96.6401
95800	93.9072
96000	104.7065
96200	101.0449
96400	92.2893
96600	97.0281
96800	103.1859
97000	92.0451
97200	101.2482
97400	92.0047
97600	91.2532
97800	91.9436
98000	93.3403
98200	98.5673
98400	100.1348
98600	99.0941
98800	93.8996
99000	95.4947
99200	103.0197
99400	91.6824
99600	102.1881
99800	104.1025
100000	97.2184
100200	94.3500
100400	90.8191
100600	99.8071
100800	100.3115
101000	99.6912
101200	99.5300
101400	93.2354
101600	103.3823
101800	96.8419
102000	90.1481
102200	95.8473
102400	97.9276
102600	98.8785
102800	101.0947
103000	94.5413
103200	100.5396
103400	92.2471
103600	95.2685
103800	93.2110
104000	102.9534
104200	100.9395
104400	102.6546
104600	100.7213
104800	102.5526
105000	99.6373
105200	100.5019
105400	102.2739
105600	91.9288
105800	101.5402
106000	99.4119
106200	96.6295
106400	99.5871
106600	92.0998
106800	95.1841
107000	89.1567
107200	97.3913
107400	99.3756
107600	95.7605
107800	102.1757
108000	97.8440
108200	93.2334
108400	100.1140
108600	99.5652
108800	95.7936
109000	95.1036
109200	91.4230
109400	90.1026
109600	100.6637
109800	99.5196
110000	96.3781
110200	89.5046
110400	88.7967
110600	98.1534
110800	99.9621
111000	100.6380
111200	101.0073
111400	94.5687
111600	98.5495
111800	92.8695
112000	97.9381
112200	99.4091
112400	101.6673
112600	91.0224
112800	99.3119
113000	99.2408
113200	92.2621
113400	95.9093
113600	100.6745
113800	93.7684
114000	98.8168
114200	93.9109
114400	90.7210
114600	89.6420
114800	88.1603
115000	94.5672
115200	89.8000
115400	96.5760
115600	91.3145
115800	96.6516
116000	91.6901
116200	90.9961
116400	96.2233
116600	96.6974
116800	88.2417
117000	97.9373
117200	98.7083
117400	89.4481
117600	93.9854
117800	97.4179
118000	90.5073
118200	97.2179
118400	91.3228
118600	95.0429
118800	88.7866
119000	100.6940
119200	100.4821
119400	98.1712
119600	91.1247
119800	97.3529
120000	92.0892
120200	92.6938
120400	95.7165
120600	97.4525
120800	108.0406
121000	105.3291
121200	106.4274
121400	109.4333
121600	120.1881
121800	132.0831
122000	143.9105
122200	155.9280
122400	181.4046
122600	192.1759
122800	230.1685
123000	265.1582
123200	304.5311
123400	346.9787
123600	411.4943
123800	465.4450
124000	553.1853
124200	633.7648
124400	743.1053
124600	851.4869
124800	974.4200
125000	1117.7437
125200	1260.7248
125400	1419.8682
125600	1587.3947
125800	1775.7498
126000	1954.1132
126200	2134.6838
126400	2330.8155
126600	2511.8154
126800	2687.4107
127000	2843.4193
127200	2994.6605
127400	3135.1182
127600	3248.9034
127800	3340.6430
128000	3409.3743
128200	3451.8496
128400	3463.1443
128600	3449.3831
128800	3407.6318
129000	3348.5293
129200	3245.6105
129400	3134.2985
129600	2992.9887
129800	2846.4282
130000	2678.6478
130200	2510.5685
130400	2330.5758
130600	2145.1735
130800	1948.6867
131000	1766.3870
131200	1592.4290
131400	1426.3387
131600	1257.9343
131800	1119.6732
132000	981.4878
132200	845.7793
132400	738.9758
132600	632.0271
132800	551.1328
133000	475.2960
133200	403.2952
133400	351.0889
133600	300.3466
133800	252.4363
134000	227.9677
134200	194.4456
134400	168.5064
134600	157.5679
134800	137.1025
135000	135.2806
135200	123.4735
135400	114.7713
135600	110.3593
135800	108.2253
136000	99.4173
136200	92.3538
136400	90.7252
136600	88.7278
136800	97.3934
137000	88.2089
137200	95.4849
137400	99.1580
137600	85.8780
137800	98.0547
138000	98.2573
138200	92.5317
138400	94.4649
138600	93.5134
138800	88.3513
139000	96.9989
139200	94.4112
139400	91.9389
139600	97.2481
139800	94.4805
140000	86.6528
140200	93.4821
140400	96.1826
140600	89.4945
140800	92.9637
141000	98.2483
141200	92.3829
141400	85.9526
141600	85.7634
141800	98.2702
142000	97.4071
142200	85.5670
142400	91.9070
142600	96.8143
142800	92.7650
143000	85.2212
143200	93.4644
143400	85.1757
143600	93.6232
143800	96.2394
144000	94.0596
144200	92.6620
144400	92.9251
144600	86.0148
144800	92.8566
145000	92.9833
145200	91.7671
145400	95.9641
145600	89.7867
145800	85.7640
146000	89.3744
146200	93.2782
146400	95.1093
146600	87.3975
146800	91.5207
147000	97.4351
147200	91.9005
147400	90.9615
147600	87.7341
147800	89.9458
148000	85.5633
148200	86.4116
148400	91.1346
148600	87.3021
148800	97.9529
149000	95.7738
149200	86.2464
149400	88.5930
149600	93.2110
149800	97.5538
150000	97.6273
150200	88.7607
150400	91.9030
150600	96.0811
150800	91.6619
151000	85.9641
151200	89.5518
151400	91.0084
151600	85.3592
151800	99.0173
152000	99.1609
152200	97.6833
152400	97.5010
152600	88.3746
152800	94.8229
153000	92.6121
153200	98.9824
153400	97.6282
153600	99.0047
153800	97.7339
154000	94.6907
154200	95.9884
154400	85.6046
154600	88.7246
154800	94.7643
155000	97.7154
155200	88.3744
155400	88.0480
155600	86.5763
155800	87.9703
156000	95.8007
156200	92.9750
156400	94.2870
156600	86.0558
156800	87.0390
157000	94.2866
157200	94.3079
157400	92.5131
157600	90.9940
157800	94.8829
158000	90.5219
158200	90.0462
158400	98.1402
158600	97.0144
158800	96.6027
159000	89.7402
159200	92.1768
159400	86.3546
159600	98.2783
159800	91.5434
160000	94.1099
160200	86.6342
160400	99.8809
160600	97.4827
160800	86.8565
161000	96.0538
161200	97.0281
161400	95.5787
161600	97.9634
161800	98.1950
162000	86.7782
162200	89.9321
162400	91.5357
162600	91.6481
162800	90.1048
163000	87.9479
163200	93.9673
163400	100.0756
163600	95.0321
163800	99.1673
164000	99.5682
164200	99.9298
164400	98.2778
164600	91.6760
164800	89.6823
165000	100.5435
165200	90.7437
165400	93.5570
165600	96.3888
165800	96.8123
166000	87.7015
166200	98.3574
166400	91.3816
166600	94.1880
166800	98.0143
167000	95.0373
167200	100.1196
167400	101.2008
167600	98.2397
167800	98.3704
168000	90.8434
168200	100.2295
168400	94.9574
168600	101.2638
168800	87.5497
169000	94.7389
169200	96.1648
169400	97.9671
169600	91.5193
169800	96.7023
170000	96.0853
170200	92.6389
170400	99.4911
170600	89.4291
170800	97.2318
171000	95.2385
171200	90.0768
171400	88.5140
171600	99.0705
171800	96.2143
172000	91.5090
172200	91.1295
172400	98.1276
172600	98.9540
172800	97.3176
173000	99.3782
173200	91.8831
173400	96.4685
173600	90.0274
173800	98.9244
174000	96.2956
174200	92.2764
174400	100.4706
174600	101.6239
174800	92.3018
175000	100.9587
175200	93.8094
175400	98.3707
175600	100.1343
175800	95.3518
176000	92.8597
176200	93.8788
176400	93.8012
176600	94.8484
176800	98.8129
177000	90.6189
177200	101.5720
177400	102.7743
177600	100.9467
177800	102.6277
178000	99.8130
178200	94.3099
178400	92.4209
178600	101.4092
178800	95.0158
179000	91.9260
179200	96.7497
179400	93.6464
179600	92.3632
179800	102.8014
180000	101.0469
180200	99.9425
180400	100.6759
180600	102.1919
180800	103.6354
181000	101.3100
181200	103.0836
181400	96.2194
181600	95.1157
181800	93.6266
182000	94.2648
182200	91.0494
182400	103.4876
182600	99.7768
182800	92.5984
183000	92.9261
183200	101.4184
183400	90.6974
183600	95.0714
183800	99.0335
184000	95.2503
184200	92.0467
184400	100.2861
184600	98.6517
184800	102.8433
185000	98.7148
185200	104.4106
185400	93.5765
185600	94.8449
185800	94.8949
186000	104.4163
186200	94.2718
186400	103.4812
186600	102.9338
186800	104.4469
187000	93.7229
187200	104.4640
187400	103.6804
187600	96.6612
187800	94.4598
188000	93.1058
188200	94.5508
188400	103.3944
188600	99.7191
188800	93.2388
189000	93.0296
189200	104.9822
189400	95.2139
189600	93.0292
189800	92.8245
190000	101.0901
190200	93.4786
190400	101.2826
190600	95.3950
190800	94.8923
191000	106.2599
191200	101.3326
191400	105.0721
191600	100.9441
191800	95.9212
192000	103.1081
192200	105.4888
192400	99.0919
192600	100.3285
192800	105.4713
193000	94.5403
193200	98.2631
193400	99.1887
193600	106.4211
193800	104.5913
194000	99.4813
194200	103.3071
194400	106.2557
194600	96.1513
194800	100.9498
195000	97.7339
195200	94.2878
195400	106.7346
195600	95.5469
195800	103.2679
196000	97.2063
196200	102.1245
196400	98.5774
196600	106.2862
196800	104.6783
197000	100.7614
197200	107.1233
197400	100.3696
197600	97.2847
197800	95.4718
198000	105.8384
198200	94.6908
198400	97.3843
198600	98.2583
198800	97.5296
199000	101.6354
199200	96.9985
199400	105.3690
199600	98.3691
199800	105.6240
200000	98.3120
200200	105.3645
200400	97.0816
200600	102.6046
200800	99.8820
201000	102.4021
201200	106.9490
201400	107.1829
201600	103.1504
201800	102.4555
202000	106.9782
202200	97.8607
202400	105.3521
202600	97.6883
202800	106.0742
203000	98.3501
203200	104.4140
203400	101.7015
203600	105.5631
203800	106.4329
204000	102.9379
204200	95.8718
204400	102.9078
204600	103.3336
204800	101.8608
205000	100.5012
205200	100.9618
205400	100.0745
205600	105.8870
205800	97.9953
206000	104.6032
206200	96.7821
206400	110.2853
206600	98.7902
206800	104.0931
207000	100.4141
207200	98.1454
207400	98.2459
207600	104.0035
207800	97.8741
208000	108.6865
208200	110.2249
208400	106.0558
208600	108.9840
208800	104.7133
209000	102.5761
209200	97.7163
209400	97.2832
209600	98.8110
209800	97.2406
210000	101.8906
210200	108.1218
210400	105.3754
210600	99.2002
210800	108.5620
211000	111.0180
211200	105.0705
211400	109.9857
211600	104.7165
211800	104.7480
212000	99.8067
212200	106.9651
212400	100.3988
212600	109.1367
212800	101.8354
213000	111.1296
213200	108.2430
213400	105.0185
213600	100.0522
213800	105.5965
214000	107.3215
214200	99.3369
214400	106.1024
214600	102.5472
214800	109.6564
215000	103.8515
215200	106.3834
215400	99.8201
215600	101.2359
215800	99.4209
216000	99.5375
216200	105.8764
216400	108.8817
216600	103.3306
216800	108.5279
217000	107.3575
217200	101.8080
217400	110.6351
217600	101.8939
217800	108.9528
218000	112.2193
218200	103.9814
218400	112.2754
218600	112.7974
218800	108.7880
219000	105.8849
219200	101.8052
219400	104.1173
219600	112.3568
219800	110.9240
220000	107.4579
220200	99.3418
220400	108.7098
220600	102.8247
220800	110.9534
221000	106.4006
221200	100.7554
221400	112.9009
221600	103.3054
221800	102.4268
222000	99.9652
222200	111.8228
222400	103.6114
222600	109.5811
222800	112.4122
223000	104.1786
223200	105.1759
223400	103.2191
223600	108.2530
223800	112.8009
224000	107.5615
224200	106.1187
224400	106.9963
224600	107.3252
224800	102.6616
225000	111.9867
225200	108.4031
225400	102.9494
225600	110.3881
225800	100.9637
226000	106.3609
226200	112.8633
226400	111.0687
226600	105.3453
226800	104.5763
227000	103.3169
227200	103.1459
227400	105.2399
227600	112.4299
227800	103.7963
228000	112.2734
228200	111.3793
228400	102.8375
228600	110.2751
228800	107.4023
229000	109.8036
229200	113.4597
229400	109.0116
229600	104.9518
229800	106.6375
230000	102.1061
230200	103.8588
230400	101.6563
230600	108.6770
230800	108.6758
231000	103.5577
231200	110.1858
231400	103.0051
231600	103.4794
231800	112.9807
232000	113.1304
232200	102.3568
232400	109.2846
232600	105.7963
232800	104.4437
233000	102.4490
233200	109.9319
233400	113.5211
233600	110.9396
233800	108.9978
234000	101.8601
234200	107.4301
234400	103.9351
234600	101.6389
234800	102.3899
235000	109.2928
235200	106.6336
235400	113.4716
235600	114.1056
235800	102.4046
236000	106.3418
236200	104.4441
236400	104.1806
236600	101.8811
236800	112.1150
237000	108.3001
237200	102.9904
237400	102.6859
237600	113.9232
237800	114.3039
238000	109.8559
238200	103.3585
238400	108.9326
238600	114.4641
238800	113.2616
239000	112.9129
239200	111.9966
239400	106.4739
239600	102.3922
239800	107.8745
240000	112.9489
240200	112.0868
240400	104.3309
240600	105.9246
240800	114.7931
241000	106.1471
241200	102.7643
241400	106.1207
241600	110.3832
241800	104.9927
242000	103.5360
242200	111.1623
242400	110.6874
242600	106.4503
242800	111.8946
243000	114.6702
243200	103.2298
243400	109.1409
243600	111.7777
243800	107.9474
244000	102.8039
244200	106.3146
244400	112.9775
244600	108.1929
244800	110.0507
245000	106.9337
245200	111.5311
245400	115.6333
245600	104.9968
245800	114.2220
246000	106.1785
246200	106.5451
246400	108.1438
246600	107.4003
246800	107.2332
247000	102.6328
247200	107.2056
247400	103.8261
247600	105.7084
247800	108.7344
248000	113.0854
248200	102.2556
248400	114.0435
248600	106.3208
248800	108.1859
249000	103.4486
249200	113.2726
249400	111.7595
249600	115.6489
249800	113.8333
250000	108.9816
250200	115.8110
250400	103.6144
250600	111.4502
250800	109.8952
251000	102.3252
251200	114.0971
251400	110.8948
251600	112.4386
251800	109.6091
252000	113.5697
252200	103.4765
252400	108.1183
252600	105.4320
252800	101.8506
253000	114.3129
253200	106.0638
253400	108.1392
253600	109.3874
253800	103.5794
254000	110.5764
254200	107.8411
254400	108.5306
254600	114.6302
254800	109.0265
255000	115.1471
255200	105.8912
255400	109.2130
255600	114.9452
255800	108.4141
256000	112.3767
256200	109.4926
256400	104.6524
256600	101.9767
256800	110.9977
257000	108.1048
257200	109.2661
257400	113.3283
257600	104.0403
257800	106.9581
258000	111.4359
258200	104.7231
258400	114.6973
258600	103.0019
258800	113.6455
259000	104.1658
259200	105.7521
259400	108.6805
259600	104.4264
259800	112.2595
260000	103.4094
260200	102.2917
260400	114.3286
260600	104.8790
260800	103.8654
261000	114.9677
261200	108.9900
261400	109.1397
261600	113.7131
261800	104.4984
262000	114.1493
262200	109.6300
262400	104.7740
262600	109.7152
262800	102.9465
263000	105.3756
263200	101.4525
263400	104.6538
263600	103.3537
263800	109.5058
264000	104.2049
264200	109.2152
264400	105.0808
264600	111.0891
264800	102.2173
265000	108.5437
265200	104.7997
265400	106.1078
265600	109.8867
265800	106.8398
266000	114.0300
266200	112.0399
266400	109.1982
266600	112.8286
266800	111.5312
267000	112.0170
267200	105.5923
267400	109.5998
267600	107.5445
267800	102.0276
268000	102.4171
268200	107.0403
268400	112.7273
268600	110.1336
268800	110.5568
269000	112.5778
269200	102.1255
269400	102.1692
269600	103.3331
269800	111.4525
270000	110.0264
270200	111.8916
270400	110.2708
270600	109.2377
270800	105.0361
271000	111.0510
271200	100.8227
271400	110.8271
271600	110.2256
271800	104.3493
272000	110.6478
272200	109.6073
272400	112.6884
272600	111.7567
272800	100.5351
273000	108.0352
273200	108.3547
273400	110.1538
273600	105.5680
273800	110.3377
274000	113.4047
274200	107.7691
274400	101.6229
274600	101.5536
274800	103.1256
275000	108.3804
275200	111.7953
275400	100.6363
275600	108.5551
275800	103.7477
276000	112.8475
276200	112.8353
276400	102.7565
276600	110.2483
276800	103.2712
277000	104.0758
277200	110.0682
277400	101.1811
277600	110.0596
277800	109.5558
278000	107.1711
278200	109.7098
278400	110.7819
278600	102.2776
278800	100.3186
279000	108.9140
279200	103.0545
279400	104.7346
279600	108.5726
279800	104.9155
280000	109.0020
280200	106.4704
280400	108.3883
280600	98.5501
280800	101.8028
281000	109.7305
281200	110.3933
281400	106.5536
281600	110.9120
281800	110.9238
282000	108.7032
282200	100.7289
282400	108.0558
282600	109.1135
282800	108.6184
283000	105.0656
283200	105.5915
283400	110.2569
283600	106.0453
283800	106.2784
284000	104.3258
284200	99.4104
284400	105.4858
284600	108.7354
284800	105.3869
285000	110.6219
285200	98.9391
285400	108.2423
285600	110.2418
285800	107.7259
286000	99.5595
286200	98.6544
286400	106.4549
286600	106.7627
286800	103.4134
287000	102.7822
287200	110.2798
287400	106.2389
287600	108.1797
287800	110.5615
288000	102.6797
288200	108.9486
288400	97.1379
288600	104.9554
288800	104.8684
289000	102.5736
289200	110.2863
289400	107.5578
289600	96.9668
289800	107.7825
290000	107.9351
290200	109.3666
290400	102.8689
290600	98.0454
290800	105.6184
291000	105.6961
291200	109.9101
291400	102.8851
291600	96.6671
291800	107.6959
292000	97.4316
292200	109.7821
292400	108.2887
292600	104.4466
292800	101.8357
293000	97.4528
293200	96.4967
293400	107.1005
293600	109.2252
293800	102.7198
294000	102.7325
294200	102.0357
294400	102.2193
294600	100.6920
294800	104.5251
295000	107.4926
295200	101.0430
295400	97.4745
295600	102.0318
295800	97.6617
296000	98.4795
296200	96.1270
296400	103.8028
296600	107.6914
296800	99.7833
297000	104.0877
297200	98.6147
297400	108.5842
297600	104.1453
297800	101.7841
298000	103.7164
298200	98.4506
298400	105.8044
298600	105.6475
298800	103.3298
299000	104.0890
299200	98.3996
299400	98.2501
299600	100.7510
299800	98.3607
300000	97.6557
