0	98.3694
200	93.4376
400	91.8329
600	96.7562
800	98.9410
1000	93.5670
1200	93.8460
1400	95.8515
1600	94.8332
1800	101.2926
2000	95.8947
2200	90.7612
2400	92.2835
2600	102.4828
2800	91.2943
3000	95.2427
3200	102.5666
3400	99.5731
3600	100.7941
3800	94.5588
4000	93.7405
4200	91.0757
4400	94.7714
4600	99.3136
4800	91.5936
5000	93.7051
5200	98.4241
5400	93.2655
5600	99.2616
5800	96.2123
6000	102.1796
6200	101.9567
6400	96.4837
6600	103.5219
6800	103.0392
7000	94.5060
7200	102.9652
7400	97.2661
7600	102.0773
7800	92.4068
8000	97.8173
8200	92.3077
8400	96.8134
8600	92.6749
8800	94.5410
9000	94.3485
9200	96.6754
9400	102.1900
9600	100.5252
9800	103.2148
10000	95.2744
10200	93.5734
10400	99.5271
10600	99.9141
10800	90.7079
11000	102.4479
11200	101.1035
11400	99.0574
11600	94.6117
11800	101.4210
12000	94.4626
12200	99.7408
12400	102.1782
12600	101.6372
12800	97.7036
13000	93.4791
13200	96.8605
13400	96.2423
13600	104.9147
13800	95.2861
14000	96.9804
14200	93.6034
14400	101.0966
14600	97.4958
14800	100.9601
15000	99.6288
15200	94.3811
15400	101.4166
15600	99.3951
15800	94.0306
16000	104.5137
16200	105.4139
16400	101.6877
16600	104.8753
16800	106.0677
17000	99.5141
17200	100.4605
17400	97.2649
17600	96.3608
17800	106.1233
18000	96.4669
18200	95.4921
18400	97.5404
18600	99.9560
18800	100.2189
19000	93.5146
19200	101.8083
19400	105.7652
19600	100.0510
19800	96.0913
20000	98.2527
20200	103.9705
20400	101.8373
20600	104.4238
20800	99.2561
21000	105.7751
21200	97.0823
21400	101.6485
21600	101.9482
21800	104.8675
22000	99.6037
22200	97.0215
22400	105.6730
22600	106.3008
22800	100.5250
23000	95.1401
23200	99.9376
23400	100.6435
23600	102.7982
23800	98.0464
24000	94.8124
24200	106.9954
24400	105.9741
24600	97.5543
24800	101.2514
25000	103.9627
25200	97.4392
25400	102.6457
25600	98.3011
25800	105.1854
26000	95.8389
26200	96.2783
26400	97.6669
26600	107.5119
26800	99.9043
27000	99.4494
27200	97.6052
27400	105.4132
27600	107.4020
27800	103.8597
28000	99.6110
28200	102.7314
28400	106.4264
28600	100.0196
28800	98.8691
29000	98.3558
29200	98.7521
29400	95.1436
29600	102.9371
29800	95.9203
30000	106.4651
30200	102.6746
30400	96.6306
30600	107.1169
30800	102.5933
31000	102.7838
31200	98.5775
31400	107.7169
31600	103.9524
31800	102.6881
32000	108.4111
32200	104.8958
32400	107.9285
32600	107.1301
32800	97.0711
33000	99.9543
33200	104.4141
33400	106.8637
33600	98.1800
33800	98.0295
34000	103.6178
34200	98.4896
34400	97.9654
34600	95.8906
34800	95.9655
35000	96.4839
35200	96.6948
35400	108.4114
35600	101.8122
35800	101.7637
36000	102.0939
36200	101.8150
36400	108.1831
36600	106.6341
36800	98.7156
37000	97.2837
37200	99.2624
37400	107.4594
37600	96.7287
37800	96.0275
38000	96.8500
38200	99.9024
38400	101.0955
38600	96.4058
38800	102.5022
39000	105.0765
39200	97.6073
39400	99.1949
39600	102.5778
39800	96.4532
40000	99.7450
40200	98.5968
40400	104.9070
40600	106.8692
40800	107.8357
41000	102.0810
41200	109.3018
41400	98.4769
41600	101.4720
41800	99.6542
42000	99.6275
42200	105.9825
42400	105.6650
42600	102.6521
42800	106.6528
43000	103.0139
43200	108.6967
43400	109.6460
43600	100.3985
43800	108.9643
44000	103.1442
44200	98.5578
44400	104.2028
44600	105.1537
44800	105.0412
45000	105.5792
45200	100.2222
45400	102.6521
45600	107.6475
45800	104.9859
46000	97.5864
46200	105.6094
46400	97.7946
46600	107.4429
46800	107.9268
47000	109.4343
47200	98.2764
47400	99.8934
47600	98.4965
47800	108.6667
48000	105.2529
48200	97.6257
48400	108.6004
48600	106.8874
48800	101.1373
49000	106.6115
49200	102.5557
49400	96.5083
49600	102.9336
49800	105.7092
50000	101.8992
50200	105.7875
50400	97.4939
50600	105.8266
50800	107.0623
51000	105.9129
51200	96.6655
51400	108.6358
51600	106.2313
51800	106.4972
52000	100.7941
52200	98.9352
52400	108.6116
52600	99.3296
52800	98.5540
53000	110.2514
53200	100.8155
53400	101.7268
53600	108.5729
53800	98.7748
54000	108.5915
54200	106.3271
54400	103.8204
54600	106.2238
54800	101.6143
55000	97.6718
55200	97.2293
55400	103.7293
55600	98.5540
55800	103.4178
56000	96.5172
56200	102.3354
56400	105.1432
56600	97.5240
56800	101.6789
57000	97.2090
57200	109.4613
57400	108.2570
57600	98.1174
57800	102.1514
58000	110.1538
58200	103.3584
58400	99.8813
58600	100.5070
58800	100.8065
59000	110.2176
59200	104.9799
59400	106.0623
59600	105.1925
59800	108.3950
60000	108.2420
60200	97.0287
60400	109.6104
60600	103.3384
60800	96.6891
61000	107.7025
61200	106.0342
61400	107.6356
61600	109.8905
61800	107.8977
62000	99.2916
62200	109.6492
62400	101.2698
62600	101.7427
62800	102.9909
63000	98.8751
63200	109.8317
63400	96.9366
63600	96.4138
63800	108.8696
64000	107.2768
64200	103.0583
64400	100.0951
64600	102.0887
64800	106.9742
65000	97.0218
65200	97.3056
65400	98.4832
65600	102.7601
65800	107.2720
66000	106.1586
66200	99.1934
66400	109.0318
66600	95.8144
66800	108.5577
67000	102.1871
67200	101.1046
67400	104.6721
67600	105.7060
67800	104.1847
68000	106.3016
68200	100.8655
68400	97.3934
68600	98.7155
68800	97.7448
69000	105.5053
69200	107.7833
69400	97.6483
69600	102.3157
69800	104.0967
70000	103.9148
70200	109.0399
70400	97.7548
70600	106.6446
70800	104.6415
71000	105.6469
71200	103.3688
71400	99.6559
71600	95.2238
71800	105.9423
72000	102.3133
72200	97.6324
72400	108.2951
72600	100.9820
72800	108.9208
73000	99.1470
73200	107.4187
73400	95.9650
73600	96.0429
73800	106.0983
74000	96.9560
74200	104.8304
74400	102.8737
74600	102.2362
74800	101.4644
75000	107.7349
75200	105.2256
75400	100.5525
75600	95.3417
75800	96.7559
76000	101.7242
76200	106.6318
76400	106.9393
76600	100.6621
76800	102.8923
77000	100.5532
77200	94.8591
77400	97.0964
77600	105.5910
77800	101.4402
78000	107.6560
78200	102.0149
78400	96.7874
78600	102.2498
78800	107.6630
79000	99.7252
79200	106.1170
79400	99.8960
79600	103.1576
79800	96.3684
80000	106.2093
80200	99.3009
80400	102.5898
80600	107.1879
80800	95.2469
81000	99.4676
81200	94.0885
81400	101.4292
81600	97.7246
81800	101.1675
82000	102.9662
82200	100.2141
82400	102.8794
82600	95.3377
82800	103.4407
83000	94.2339
83200	103.7584
83400	106.7804
83600	96.2923
83800	95.6040
84000	95.3945
84200	105.2588
84400	93.6750
84600	95.7244
84800	104.0586
85000	103.5836
85200	105.8008
85400	96.4904
85600	99.0559
85800	93.7833
86000	101.7166
86200	105.6960
86400	104.0366
86600	105.9522
86800	101.8903
87000	102.9751
87200	100.2884
87400	103.8697
87600	101.8270
87800	98.1225
88000	101.9811
88200	92.9853
88400	103.4336
88600	99.1408
88800	100.8300
89000	105.8622
89200	100.3493
89400	104.8547
89600	99.1489
89800	97.6739
90000	104.9620
90200	100.4377
90400	103.7597
90600	95.8469
90800	98.3296
91000	93.6951
91200	96.7290
91400	97.4441
91600	95.7233
91800	93.4455
92000	100.3991
92200	93.3818
92400	104.0133
92600	102.8471
92800	93.6829
93000	98.0748
93200	100.6155
93400	92.0097
93600	100.0908
93800	94.6025
94000	97.2160
94200	99.7389
94400	99.4593
94600	102.9908
94800	102.9956
95000	99.7536
95200	104.8496
95400	92.7025
95600	99.5694
95800	96.2229
96000	91.5839
96200	93.9307
96400	101.3631
96600	90.9648
96800	98.8906
97000	95.7888
97200	98.6428
97400	100.1501
97600	100.1243
97800	92.9902
98000	103.9184
98200	93.8573
98400	95.0315
98600	100.1125
98800	91.9387
99000	99.3190
99200	97.0297
99400	96.0394
99600	102.9966
99800	96.2077
100000	97.9693
100200	102.6738
100400	96.7644
100600	91.8000
100800	96.3460
101000	101.5163
101200	99.3762
101400	95.3674
101600	96.4336
101800	97.2029
102000	97.9779
102200	92.6344
102400	101.3055
102600	94.5947
102800	92.4623
103000	96.6490
103200	98.2132
103400	95.5153
103600	101.6087
103800	102.9091
104000	94.2916
104200	98.7270
104400	92.3455
104600	102.0882
104800	96.0587
105000	90.2423
105200	98.3543
105400	97.2051
105600	97.6789
105800	98.5623
106000	97.7354
106200	89.5802
106400	90.4597
106600	98.9366
106800	90.9512
107000	99.4225
107200	95.5480
107400	100.2391
107600	95.7692
107800	94.3919
108000	99.2976
108200	93.5523
108400	101.4207
108600	94.9792
108800	96.2749
109000	91.0539
109200	97.6955
109400	99.0483
109600	98.3722
109800	95.3009
110000	102.1905
110200	101.3850
110400	97.9967
110600	94.5033
110800	98.4323
111000	95.5943
111200	88.8049
111400	98.8816
111600	95.0902
111800	89.1915
112000	96.9506
112200	96.7026
112400	100.0012
112600	96.2312
112800	95.3152
113000	92.0865
113200	100.2229
113400	89.3156
113600	96.6892
113800	96.1788
114000	100.8357
114200	92.3289
114400	95.3736
114600	100.7816
114800	96.7110
115000	94.7390
115200	90.1703
115400	95.0380
115600	92.9652
115800	87.8124
116000	89.2293
116200	91.2624
116400	97.3188
116600	92.5847
116800	98.7249
117000	87.5144
117200	95.0816
117400	94.9370
117600	100.8329
117800	94.0166
118000	90.9967
118200	100.6393
118400	100.0081
118600	88.0530
118800	95.7171
119000	92.7825
119200	96.1330
119400	101.5761
119600	92.3170
119800	97.6803
120000	98.8145
120200	103.5121
120400	92.0434
120600	107.1830
120800	105.0119
121000	112.6886
121200	112.4806
121400	113.2997
121600	134.0920
121800	141.1314
122000	152.9421
122200	164.4144
122400	193.4268
122600	214.0132
122800	257.8478
123000	297.6138
123200	342.0926
123400	404.1284
123600	463.5896
123800	549.6160
124000	639.5871
124200	745.8052
124400	869.4916
124600	1008.4885
124800	1157.4120
125000	1328.0350
125200	1517.0476
125400	1707.3612
125600	1920.4748
125800	2140.2667
126000	2356.0449
126200	2592.3775
126400	2814.3402
126600	3046.3969
126800	3259.7675
127000	3466.2782
127200	3664.8005
127400	3839.7286
127600	3985.0203
127800	4096.5635
128000	4187.9361
128200	4244.3454
128400	4264.0590
128600	4255.9334
128800	4210.8245
129000	4128.4689
129200	4023.6075
129400	3887.3022
129600	3719.0781
129800	3529.7125
130000	3327.2761
130200	3107.2408
130400	2893.7723
130600	2664.2899
130800	2426.9069
131000	2205.6269
131200	1989.1529
131400	1776.9131
131600	1577.0529
131800	1387.8036
132000	1210.8569
132200	1052.9768
132400	907.9408
132600	780.1581
132800	667.2775
133000	580.2376
133200	496.5981
133400	418.3769
133600	353.3091
133800	310.8989
134000	261.5688
134200	224.1073
134400	194.9935
134600	180.2956
134800	154.0828
135000	136.4165
135200	133.4645
135400	122.5327
135600	111.3205
135800	111.6301
136000	101.7329
136200	106.0271
136400	97.0875
136600	101.8468
136800	99.9675
137000	100.2268
137200	87.0588
137400	97.5102
137600	97.3573
137800	88.9668
138000	98.2851
138200	97.0260
138400	90.0805
138600	89.9191
138800	93.8774
139000	87.4149
139200	96.1259
139400	95.3555
139600	96.2831
139800	91.3309
140000	91.9109
140200	88.4509
140400	88.3133
140600	86.1453
140800	94.5218
141000	96.6397
141200	96.6521
141400	94.5680
141600	93.2961
141800	93.4884
142000	86.5495
142200	92.2335
142400	98.3829
142600	96.4188
142800	98.2165
143000	95.4418
143200	87.6393
143400	97.2938
143600	93.0813
143800	95.8561
144000	98.7976
144200	96.4357
144400	87.6097
144600	86.4901
144800	87.3679
145000	94.1675
145200	91.9055
145400	90.8263
145600	98.2407
145800	93.4695
146000	87.8088
146200	96.4094
146400	98.4608
146600	86.8450
146800	88.7115
147000	91.7574
147200	96.1391
147400	87.9884
147600	88.8082
147800	86.9356
148000	95.9720
148200	90.3503
148400	91.0011
148600	85.6359
148800	89.3369
149000	90.1924
149200	98.1785
149400	92.1059
149600	98.4329
149800	91.2264
150000	96.0846
150200	85.7712
150400	87.4347
150600	95.4311
150800	87.5001
151000	95.8951
151200	89.1295
151400	88.1404
151600	86.9519
151800	92.1192
152000	87.0046
152200	98.9970
152400	86.6712
152600	96.2278
152800	92.2551
153000	87.8646
153200	92.0181
153400	97.9819
153600	88.6801
153800	94.2932
154000	90.0920
154200	89.3645
154400	95.9370
154600	98.6311
154800	98.7456
155000	87.0818
155200	87.1208
155400	96.3764
155600	96.7230
155800	86.6641
156000	88.1396
156200	92.8631
156400	87.1390
156600	91.0104
156800	89.8525
157000	92.8749
157200	88.0187
157400	93.7198
157600	93.4412
157800	93.2799
158000	99.1172
158200	97.0533
158400	94.9817
158600	90.2815
158800	97.7363
159000	93.8714
159200	98.6867
159400	88.3774
159600	91.7590
159800	86.3887
160000	97.7858
160200	87.6218
160400	93.6189
160600	92.0918
160800	91.5145
161000	99.2839
161200	92.4241
161400	90.6621
161600	98.1777
161800	89.4967
162000	90.9545
162200	93.2489
162400	99.7595
162600	89.9901
162800	95.7497
163000	98.9353
163200	95.0457
163400	88.5007
163600	92.0094
163800	98.7418
164000	91.7297
164200	98.9547
164400	94.5210
164600	95.0105
164800	95.4684
165000	87.0146
165200	89.3369
165400	93.5134
165600	87.3591
165800	88.0854
166000	90.4176
166200	99.1299
166400	96.8045
166600	88.3738
166800	90.9608
167000	93.4361
167200	88.2349
167400	97.0935
167600	98.6347
167800	88.0497
168000	97.6576
168200	99.4110
168400	97.4342
168600	99.0745
168800	92.4997
169000	101.2250
169200	90.3790
169400	101.4890
169600	95.7161
169800	88.3742
170000	100.7725
170200	95.8212
170400	96.6289
170600	90.3659
170800	97.2397
171000	100.9547
171200	100.4683
171400	94.2200
171600	91.2629
171800	100.4093
172000	98.0833
172200	89.5225
172400	99.4350
172600	98.9402
172800	90.7915
173000	95.2810
173200	100.1473
173400	99.7987
173600	98.8360
173800	92.6772
174000	89.9328
174200	96.4997
174400	99.4179
174600	99.3093
174800	96.1811
175000	92.4379
175200	95.7751
175400	92.0187
175600	90.4469
175800	95.1977
176000	102.2734
176200	90.8941
176400	100.0669
176600	91.9007
176800	99.9809
177000	90.5474
177200	91.3082
177400	99.4330
177600	90.6932
177800	102.2548
178000	96.7629
178200	92.8980
178400	100.8784
178600	98.0564
178800	97.2107
179000	95.1376
179200	102.5113
179400	99.4093
179600	95.6666
179800	97.6646
180000	101.2643
180200	96.4863
180400	96.8328
180600	102.8517
180800	100.0254
181000	103.7162
181200	100.6736
181400	90.7204
181600	97.2098
181800	100.6561
182000	96.3329
182200	95.1723
182400	100.8368
182600	100.7935
182800	102.1108
183000	102.0081
183200	100.8375
183400	104.3684
183600	90.7211
183800	100.5775
184000	99.5651
184200	100.8113
184400	104.5453
184600	92.4038
184800	93.9741
185000	93.8902
185200	99.1048
185400	101.6260
185600	102.4385
185800	98.1598
186000	92.4677
186200	95.6045
186400	94.6775
186600	100.8080
186800	95.8102
187000	91.5311
187200	92.7578
187400	98.4921
187600	101.8511
187800	98.3897
188000	98.6394
188200	98.2587
188400	103.3781
188600	93.1099
188800	95.2371
189000	101.1424
189200	103.5844
189400	93.2578
189600	105.4624
189800	104.5346
190000	97.4351
190200	98.1076
190400	101.2182
190600	92.9189
190800	104.7810
191000	93.4380
191200	103.8124
191400	102.0642
191600	101.4397
191800	94.8968
192000	92.7605
192200	95.2717
192400	103.9623
192600	96.2773
192800	99.4460
193000	93.7675
193200	93.3035
193400	100.5515
193600	95.6061
193800	96.8359
194000	96.1164
194200	107.0017
194400	102.1130
194600	100.7866
194800	101.8871
195000	99.2965
195200	107.0190
195400	95.3495
195600	99.6317
195800	96.8533
196000	99.3334
196200	101.5912
196400	101.3712
196600	97.3317
196800	94.5008
197000	94.9464
197200	107.1054
197400	105.6019
197600	101.0499
197800	94.4587
198000	95.5030
198200	98.0311
198400	107.3800
198600	100.8241
198800	100.0273
199000	96.4318
199200	101.1556
199400	101.3304
199600	97.7169
199800	95.5169
200000	95.2769
200200	97.2873
200400	99.3381
200600	95.2033
200800	95.8955
201000	99.0410
201200	105.1308
201400	100.6094
201600	105.4435
201800	107.1652
202000	97.8632
202200	96.0897
202400	103.1449
202600	101.9250
202800	108.4172
203000	101.1503
203200	102.9786
203400	108.6048
203600	98.6212
203800	97.5889
204000	98.5609
204200	101.7965
204400	109.5494
204600	96.7028
204800	99.9170
205000	103.2390
205200	105.0076
205400	100.9099
205600	106.6100
205800	103.3053
206000	105.4223
206200	109.6249
206400	103.1953
206600	97.7292
206800	104.8534
207000	98.7351
207200	110.4708
207400	100.6666
207600	107.3487
207800	102.5196
208000	105.4906
208200	110.6836
208400	104.3585
208600	110.3563
208800	102.8108
209000	107.7671
209200	98.4303
209400	110.0585
209600	104.9365
209800	106.9499
210000	99.9006
210200	109.1870
210400	109.4391
210600	101.6452
210800	110.8040
211000	109.1809
211200	97.7120
211400	111.2836
211600	99.7183
211800	108.6489
212000	101.8336
212200	103.3466
212400	100.7628
212600	103.6686
212800	99.5069
213000	109.3906
213200	111.4705
213400	98.4335
213600	106.5435
213800	102.1546
214000	111.7518
214200	101.0948
214400	111.8616
214600	100.3455
214800	109.6690
215000	111.1390
215200	105.4665
215400	103.1956
215600	109.2397
215800	108.1480
216000	103.3817
216200	104.3844
216400	108.9882
216600	111.2820
216800	105.0010
217000	102.4199
217200	103.4643
217400	102.3321
217600	103.8279
217800	112.0728
218000	105.4475
218200	112.6842
218400	108.0738
218600	100.9567
218800	112.0544
219000	106.0395
219200	103.0811
219400	100.8488
219600	109.4709
219800	104.2339
220000	101.0423
220200	102.8448
220400	102.5249
220600	111.0012
220800	104.9820
221000	104.9409
221200	102.8201
221400	106.0231
221600	111.4718
221800	110.1380
222000	110.6489
222200	105.1106
222400	112.0460
222600	100.6608
222800	101.4032
223000	103.8592
223200	112.7877
223400	101.3858
223600	100.7029
223800	103.6230
224000	111.0531
224200	113.0720
224400	113.9584
224600	100.1512
224800	111.8033
225000	105.4885
225200	113.5887
225400	100.7295
225600	101.5127
225800	110.0320
226000	108.6122
226200	113.1721
226400	111.1216
226600	104.9281
226800	100.8288
227000	109.5064
227200	111.0034
227400	103.6107
227600	113.3135
227800	110.6951
228000	114.4130
228200	104.3731
228400	102.4381
228600	108.2394
228800	113.3879
229000	108.8835
229200	114.1420
229400	102.0057
229600	104.5676
229800	112.6599
230000	110.6694
230200	103.1227
230400	101.9030
230600	114.0986
230800	101.4917
231000	108.2882
231200	106.7225
231400	108.1475
231600	109.6350
231800	111.3336
232000	107.1242
232200	104.2210
232400	110.1296
232600	109.3872
232800	112.1638
233000	113.4483
233200	108.8025
233400	106.4812
233600	103.8055
233800	109.8495
234000	113.1292
234200	106.9450
234400	115.1049
234600	113.5334
234800	114.3660
235000	108.4309
235200	114.5945
235400	113.5102
235600	105.6793
235800	107.9127
236000	108.3377
236200	111.2133
236400	108.4923
236600	109.5038
236800	104.6221
237000	107.3243
237200	112.7673
237400	112.4371
237600	107.7606
237800	109.9933
238000	106.4417
238200	103.0506
238400	114.9675
238600	106.0511
238800	106.7380
239000	106.1226
239200	107.7809
239400	108.3039
239600	109.5644
239800	102.4007
240000	102.9977
240200	115.5062
240400	114.7271
240600	112.6675
240800	107.5918
241000	105.1060
241200	108.1713
241400	108.1870
241600	105.5827
241800	112.3539
242000	109.9700
242200	110.8762
242400	110.3249
242600	102.8721
242800	106.2804
243000	108.0445
243200	109.1851
243400	105.2758
243600	106.9851
243800	110.0457
244000	109.0776
244200	107.9410
244400	112.2378
244600	108.6851
244800	102.8252
245000	109.5132
245200	110.6325
245400	103.7272
245600	115.8154
245800	114.2488
246000	109.2136
246200	102.3461
246400	103.9204
246600	104.7857
246800	115.0476
247000	111.8630
247200	107.1491
247400	112.4341
247600	103.5733
247800	107.6151
248000	115.0006
248200	102.5836
248400	110.4500
248600	115.2982
248800	110.9875
249000	110.3184
249200	111.1235
249400	102.6289
249600	109.2978
249800	112.8360
250000	111.8263
250200	106.6674
250400	112.0644
250600	108.7619
250800	109.2334
251000	102.6477
251200	115.2107
251400	107.9542
251600	111.4897
251800	103.6563
252000	112.3410
252200	102.8936
252400	108.8307
252600	102.0045
252800	105.6449
253000	110.2491
253200	109.5128
253400	110.6385
253600	108.2835
253800	108.7171
254000	108.2728
254200	104.4291
254400	112.2276
254600	108.7243
254800	110.0364
255000	112.6873
255200	111.0150
255400	103.0907
255600	111.0926
255800	101.7474
256000	102.3973
256200	113.2444
256400	111.4536
256600	101.9624
256800	111.3433
257000	115.0834
257200	109.6199
257400	112.9556
257600	109.3691
257800	108.0776
258000	104.4675
258200	108.4715
258400	101.6630
258600	104.7047
258800	104.4775
259000	101.6697
259200	110.9740
259400	114.8138
259600	106.0256
259800	109.2070
260000	112.7329
260200	105.0106
260400	103.9520
260600	107.9492
260800	105.3740
261000	112.6577
261200	103.1279
261400	109.6580
261600	111.3281
261800	109.5838
262000	103.2401
262200	104.4966
262400	103.6520
262600	110.0964
262800	102.5105
263000	103.6967
263200	108.7678
263400	111.3894
263600	113.5699
263800	109.2319
264000	109.2765
264200	101.9427
264400	104.2048
264600	107.8403
264800	102.3174
265000	111.0048
265200	101.1965
265400	106.2411
265600	112.4414
265800	107.7532
266000	110.9702
266200	101.8875
266400	101.4659
266600	108.2262
266800	102.2735
267000	111.1011
267200	113.2813
267400	109.6207
267600	103.6032
267800	113.9306
268000	113.0779
268200	105.0479
268400	107.5988
268600	100.5787
268800	103.9605
269000	113.3426
269200	108.1211
269400	113.7418
269600	113.4215
269800	106.0185
270000	109.2360
270200	100.7046
270400	107.6388
270600	108.9640
270800	102.8204
271000	106.5352
271200	105.0703
271400	101.9714
271600	113.0103
271800	111.2229
272000	106.3105
272200	112.6951
272400	101.2101
272600	105.1035
272800	104.6808
273000	107.1297
273200	102.8796
273400	104.4152
273600	109.5199
273800	108.2047
274000	102.8209
274200	106.3295
274400	103.6448
274600	109.5872
274800	111.1805
275000	112.2998
275200	111.9506
275400	111.2880
275600	107.8883
275800	100.0729
276000	99.6168
276200	103.1637
276400	100.7497
276600	108.2059
276800	107.8908
277000	105.9094
277200	111.9117
277400	110.4324
277600	100.9160
277800	102.6353
278000	106.9199
278200	102.7229
278400	106.5729
278600	103.6208
278800	108.0871
279000	101.3817
279200	103.8040
279400	100.3402
279600	107.3906
279800	104.0246
280000	106.3883
280200	102.3541
280400	111.6169
280600	110.7818
280800	98.6371
281000	104.1588
281200	109.9748
281400	110.5684
281600	111.9774
281800	98.5897
282000	107.8924
282200	108.7676
282400	104.8935
282600	102.8696
282800	108.2196
283000	108.1695
283200	110.1943
283400	110.8990
283600	106.5529
283800	98.5094
284000	109.0757
284200	98.8791
284400	100.9025
284600	99.4500
284800	102.9468
285000	102.8628
285200	105.4195
285400	109.3499
285600	101.4880
285800	110.3277
286000	105.4026
286200	109.6634
286400	98.9110
286600	99.3638
286800	104.3032
287000	110.3155
287200	99.8883
287400	100.5702
287600	108.9464
287800	98.8937
288000	106.1214
288200	104.2550
288400	98.6887
288600	110.0036
288800	104.0163
289000	101.0310
289200	97.7289
289400	102.6293
289600	97.4357
289800	99.4023
290000	109.2930
290200	106.8438
290400	106.9952
290600	107.4346
290800	107.9101
291000	96.7127
291200	102.8743
291400	97.1028
291600	107.4993
291800	99.7349
292000	107.6090
292200	99.4112
292400	102.4858
292600	104.6645
292800	106.8358
293000	105.8775
293200	102.6649
293400	103.0567
293600	109.4555
293800	99.4771
294000	108.0334
294200	99.3826
294400	100.1861
294600	107.6393
294800	97.3054
295000	96.0561
295200	106.9727
295400	103.3903
295600	107.3337
295800	105.2164
296000	105.2237
296200	102.2362
296400	106.1530
296600	102.6098
296800	100.3420
297000	105.8807
297200	107.8663
297400	108.4161
297600	103.5196
297800	107.3691
298000	99.0902
298200	107.3602
298400	97.2650
298600	95.7557
298800	106.1812
299000	97.9567
299200	104.6317
299400	99.8846
299600	105.9584
299800	102.2274
300000	101.6162
